# time     av_coherence           domains   magnetization^2        coh_avrho   purity_avrho  prob_equireached  arrival_counts  log10_nonzeros
    1     10.2972454602      3.8684166667     23.4703635872      4.2209157944      0.0006565104      0.0027916667          67    6.2009954211
    2     17.2879676112      2.8123333333     38.9415802146      4.0089917183      0.0024452982      0.0313749984         686    6.5413375692
    3     21.8094185049      2.2966666667     50.8717560603      3.4029479027      0.0062185447      0.0816249996        1206    6.4830991010
    4     23.7157948395      1.9713333333     61.1959973641      2.8494877815      0.0127801076      0.1378333271        1349    6.4079275342
    5     25.1474111703      1.7484166667     70.5093236725      2.4200019836      0.0221506450      0.1942916662        1355    6.3632425785
    6     26.0389930921      1.5808333333     78.9069144768      2.0301742554      0.0338703617      0.2481250018        1292    6.3225649383
    7     26.9061096478      1.4431666667     86.9071573986      1.7006065845      0.0477047823      0.2996250093        1236    6.3051700889
    8     27.6291757319      1.3304166667     94.2700567903      1.4227888584      0.0625523627      0.3464999795        1125    6.3049250357
    9     28.3956669686      1.2326666667    101.1291243454      1.2436470985      0.0784409195      0.3904166818        1054    6.3044422702
   10     28.6433377111      1.1440833333    107.4573029477      1.0782299042      0.0952022672      0.4318333268         994    6.3040961231
   11     28.8834786464      1.0688333333    113.0686295347      0.9648344517      0.1112040952      0.4679166675         866    6.3015235080
   12     28.6324898001      0.9973333333    118.4338324352      0.8508868217      0.1278643608      0.5026667118         834    6.2916536240
   13     28.2631664816      0.9315833333    123.5148877257      0.8150665760      0.1446065605      0.5352916718         783    6.2955050849
   14     27.6036245634      0.8700833333    128.2228821899      0.7444837093      0.1611121595      0.5655833483         727    6.2781314287
   15     26.6532882915      0.8101666667    132.8568552024      0.6581811905      0.1781740040      0.5952500105         712    6.2269484896
   16     25.8146012629      0.7574166667    136.9622279623      0.5963146687      0.1939695776      0.6214166880         628    6.1367177141
   17     24.8982383497      0.7079166667    140.7652961648      0.5609397888      0.2094943374      0.6460832953         592    5.6793697445
   18     23.9844818017      0.6646666667    144.1879887251      0.5417394638      0.2235829085      0.6676666737         518    4.2215707122
   19     22.9969093266      0.6215000000    147.6043012539      0.5245671272      0.2381432056      0.6892499924         518    4.2215707122
   20     21.9023298958      0.5812500000    150.6863206424      0.5063476562      0.2521407604      0.7093750238         483    4.2215707122
   21     20.8407415471      0.5421666667    153.7202442655      0.4863600731      0.2661270499      0.7289167643         469    4.2215707122
   22     19.9042041240      0.5083333333    156.3688963453      0.4715147018      0.2785485983      0.7458332777         406    4.2215707122
   23     18.7998174857      0.4732500000    159.1146390836      0.4607830048      0.2917293608      0.7633749247         421    4.2215707122
   24     17.8955346238      0.4432500000    161.4615241760      0.4418706894      0.3032507896      0.7783749104         360    4.2215707122
   25     17.0158886897      0.4155000000    163.6214849744      0.4274358749      0.3141125739      0.7922498584         333    4.2215707122
   26     16.1025235685      0.3886666667    165.6922087532      0.4133462906      0.3247970343      0.8056666851         322    4.2215707122
   27     15.2486364890      0.3630000000    167.6826015280      0.3963921070      0.3351948857      0.8184999824         308    4.2215707122
   28     14.4137240626      0.3403333333    169.4580871193      0.3888592720      0.3445175290      0.8298333883         272    4.2215707122
   29     13.7273767727      0.3190833333    171.1160322737      0.3741545677      0.3533705473      0.8404583931         255    4.2215707122
   30     12.9464103011      0.2984166667    172.7316786549      0.3597080708      0.3620885015      0.8507917523         248    4.2215707122
   31     12.2257303890      0.2791666667    174.2348569581      0.3501307964      0.3703050315      0.8604167700         231    4.2215707122
   32     11.5835356292      0.2624166667    175.5654175683      0.3395228386      0.3775292635      0.8687916994         201    4.2215707122
   33     10.7951262692      0.2420833333    177.1309845508      0.3249299526      0.3863957226      0.8789583445         244    4.2215707122
   34     10.0315473395      0.2236666667    178.5467163164      0.3106782436      0.3945165277      0.8881666660         221    4.2215707122
   35      9.4944473942      0.2103333333    179.5898600846      0.3013167381      0.4004504383      0.8948333263         160    4.2215707122
   36      8.9308159247      0.1960000000    180.7192275914      0.2870357037      0.4068774581      0.9019999504         172    4.2215707122
   37      8.3645649990      0.1822500000    181.7877711282      0.2809445858      0.4131027460      0.9088750482         165    4.2215707122
   38      7.8876780641      0.1710833333    182.6704231743      0.2695262432      0.4181840420      0.9144583941         134    4.2215707122
   39      7.4192205592      0.1600833333    183.5266149477      0.2613244057      0.4232251644      0.9199583530         132    4.2215707122
   40      7.0223696220      0.1505833333    184.2490005045      0.2525055408      0.4276004732      0.9247084260         114    4.2215707122
   41      6.5743193878      0.1400000000    185.0808523122      0.2440953255      0.4325006604      0.9300001264         127    4.2215707122
   42      6.1483420538      0.1299166667    185.8677220901      0.2354953289      0.4371974766      0.9350417852         121    4.2215707122
   43      5.8061482354      0.1221666667    186.4779147308      0.2284986973      0.4408248663      0.9389167428          93    4.2215707122
   44      5.4560132433      0.1140833333    187.1096804397      0.2192020416      0.4446243644      0.9429584146          97    4.2215707122
   45      5.1529349104      0.1070833333    187.6501370328      0.2123608589      0.4479273558      0.9464583993          84    4.2215707122
   46      4.8549348646      0.1000000000    188.2136359766      0.2062494755      0.4512842000      0.9500000477          85    4.2215707122
   47      4.5521232911      0.0928333333    188.7693468417      0.1971263885      0.4546930790      0.9535834193          86    4.2215707122
   48      4.2564734362      0.0863333333    189.2762907702      0.1899394989      0.4577978551      0.9568333626          78    4.2215707122
   49      3.9807226679      0.0804166667    189.7269043572      0.1862113476      0.4606328607      0.9597917795          71    4.2215707122
   50      3.7723216378      0.0756666667    190.1019255241      0.1789693832      0.4629125297      0.9621667862          57    4.2215707122
   51      3.5519506386      0.0706666667    190.4894990893      0.1706314087      0.4653177857      0.9646667242          60    4.2215707122
   52      3.3306223537      0.0657500000    190.8745149021      0.1651165485      0.4676905870      0.9671250582          59    4.2215707122
   53      3.1217206562      0.0611666667    191.2265521825      0.1591303349      0.4699093103      0.9694167376          55    4.2215707122
   54      2.9322703773      0.0570833333    191.5496367026      0.1542551517      0.4718885124      0.9714584351          49    4.2215707122
   55      2.8042351084      0.0540833333    191.7790975153      0.1497011185      0.4733474553      0.9729583263          36    4.2215707122
   56      2.6999337810      0.0519166667    191.9532402025      0.1473810673      0.4744021893      0.9740417600          26    4.2215707122
   57      2.5438912575      0.0487500000    192.2019879873      0.1430089474      0.4759458899      0.9756249785          38    4.2215707122
   58      2.4024057360      0.0458333333    192.4246457109      0.1378855705      0.4773705304      0.9770833850          35    4.2215707122
   59      2.2841144780      0.0430833333    192.6281076179      0.1336393356      0.4787137806      0.9784584045          33    4.2215707122
   60      2.1232586552      0.0395833333    192.9081919907      0.1297433376      0.4804254472      0.9802083373          42    4.2215707122
